1	1	-59.36	-59.36	  2916   2
2	2	-57.37	-57.37	  2983
3	3	-55.37	-55.37	  2969
4	4	-53.38	-53.38	  2961
5	5	-51.37	-51.37	  3012
6	6	-49.36	-49.36	  2992
7	7	-47.35	-47.35	  3036
8	8	-45.33	-45.33	  3040
9	9	-43.32	-43.32	  2994
10	10	-41.31	-41.31	  3000
11	11	-39.29	-39.29	  3022
12	12	-37.28	-37.28	  3054
13	13	-35.30	-35.30	  3034
14	14	-33.33	-33.33	  3126
15	15	-31.35	-31.35	  3097
16	16	-29.37	-29.37	  3052
17	17	-27.40	-27.40	  3066
18	18	-25.29	-25.29	  3064
19	19	-23.19	-23.19	  3099
20	20	-21.08	-21.08	  3061
21	21	-18.98	-18.98	  3078
22	22	-16.87	-16.87	  3075
23	23	-15.06	-15.06	  3088
24	24	-13.25	-13.25	  3133
25	25	-11.44	-11.44	  3101
26	26	-9.62	-9.62	  3106
27	27	-7.81	-7.81	  3101
28	28	-6.00	-6.00	  3121
29	29	-3.91	-3.91	  3096
30	30	-1.82	-1.82	  3136
31	31	 0.27	 0.27	  3099
32	32	 2.37	 2.37	  3112
33	33	 4.46	 4.46	  3107
34	34	 6.55	 6.55	  3110
35	35	 8.56	 8.56	  3112
36	36	10.58	10.58	  3132
37	37	12.59	12.59	  3356
38	38	14.61	14.61	  3718
39	39	16.62	16.62	  3163
40	40	18.64	18.64	  3155
41	41	20.64	20.64	  3094
42	42	22.64	22.64	  3108
43	43	24.64	24.64	  3088
44	44	26.64	26.64	  3086
45	45	28.65	28.65	  3126
46	46	30.65	30.65	  3127
47	47	32.64	32.64	  3122
48	48	34.64	34.64	  3151
49	49	36.63	36.63	  3136
50	50	38.63	38.63	  3166
51	51	40.63	40.63	  3163
52	52	42.64	42.64	  3168
53	53	44.64	44.64	  3184
54	54	46.65	46.65	  3210
55	55	48.65	48.65	  3174
56	56	50.65	50.65	  3211
57	57	52.66	52.66	  3171
58	58	54.66	54.66	  3116
