  -0.9963881   0.0849231  -0.0849231  -0.9963881    -698.638     -36.723
  -0.9962156   0.0850762  -0.0850762  -0.9962156    -678.460     -32.887
  -0.9962070   0.0850217  -0.0850217  -0.9962069    -667.006     -29.543
  -0.9959186   0.0850350  -0.0850350  -0.9959186    -650.253     -23.091
  -0.9958192   0.0846319  -0.0846319  -0.9958192    -633.893     -24.144
  -0.9959605   0.0844863  -0.0844863  -0.9959605    -620.600     -18.895
  -0.9958331   0.0842440  -0.0842440  -0.9958331    -603.785     -15.095
  -0.9960180   0.0843690  -0.0843690  -0.9960180    -584.529     -15.060
  -0.9962578   0.0843381  -0.0843381  -0.9962579    -569.662     -11.711
  -0.9963890   0.0838144  -0.0838144  -0.9963890    -551.509      -7.382
  -0.9967888   0.0836276  -0.0836276  -0.9967888    -532.645      -4.844
  -0.9964836   0.0834566  -0.0834566  -0.9964836    -509.453      -4.872
  -0.9965470   0.0831496  -0.0831496  -0.9965470    -488.950       0.751
  -0.9966308   0.0827181  -0.0827181  -0.9966309    -463.040       7.017
  -0.9964154   0.0824926  -0.0824926  -0.9964154    -434.978       8.062
  -0.9964993   0.0820426  -0.0820426  -0.9964993    -421.281      10.929
  -0.9968360   0.0818558  -0.0818558  -0.9968360    -396.992      15.355
  -0.9966241   0.0814439  -0.0814439  -0.9966241    -368.565      19.923
  -0.9969289   0.0816737  -0.0816737  -0.9969289    -344.738      20.836
  -0.9965113   0.0807277  -0.0807277  -0.9965113    -324.370      22.663
  -0.9964913   0.0804032  -0.0804032  -0.9964913    -293.858      22.615
  -0.9960287   0.0798274  -0.0798274  -0.9960287    -267.637      24.405
  -0.9960954   0.0793603  -0.0793603  -0.9960954    -239.139      28.760
  -0.9964204   0.0794287  -0.0794287  -0.9964204    -204.118      26.499
  -0.9966900   0.0796138  -0.0796138  -0.9966900    -178.569      24.712
  -0.9967611   0.0789343  -0.0789343  -0.9967611    -149.613      24.848
  -0.9971767   0.0791320  -0.0791320  -0.9971767    -125.983      28.003
  -0.9971526   0.0791540  -0.0791540  -0.9971526     -92.550      25.776
  -0.9974661   0.0792957  -0.0792957  -0.9974662     -62.954      25.328
  -0.9965671   0.0790181  -0.0790181  -0.9965671     -33.390      23.961
  -0.9963234   0.0793480  -0.0793480  -0.9963234      -3.067      22.670
  -0.9964586   0.0787382  -0.0787382  -0.9964586      24.133      20.371
  -0.9954513   0.0785929  -0.0785929  -0.9954513      57.316      23.656
  -0.9949145   0.0791895  -0.0791895  -0.9949145      84.299      22.981
  -0.9949557   0.0789744  -0.0789744  -0.9949557     112.097      23.571
  -0.9956539   0.0788839  -0.0788839  -0.9956539     138.387      23.881
  -0.9960663   0.0798197  -0.0798197  -0.9960663     159.118      23.774
  -0.9970004   0.0816109  -0.0816109  -0.9970003     176.054      31.248
  -0.9959077   0.0784039  -0.0784039  -0.9959077     230.458      -6.140
  -0.9967224   0.0780149  -0.0780149  -0.9967224     248.221      -6.241
  -0.9966776   0.0778931  -0.0778931  -0.9966776     274.980      -6.035
  -0.9968804   0.0781179  -0.0781179  -0.9968803     300.285      -9.215
  -0.9968858   0.0778933  -0.0778933  -0.9968858     316.286     -12.492
  -0.9966922   0.0776050  -0.0776050  -0.9966923     345.435     -12.353
  -0.9971982   0.0775094  -0.0775094  -0.9971982     368.638     -12.480
  -0.9971409   0.0775189  -0.0775189  -0.9971409     390.302     -12.094
  -0.9973536   0.0774632  -0.0774632  -0.9973536     415.530     -15.172
  -0.9976310   0.0771779  -0.0771779  -0.9976309     443.948     -18.298
  -0.9971985   0.0772036  -0.0772036  -0.9971985     466.277     -17.966
  -0.9970551   0.0770588  -0.0770588  -0.9970552     488.265     -17.447
  -0.9973930   0.0773978  -0.0773978  -0.9973929     511.161     -19.732
  -0.9972024   0.0778920  -0.0778920  -0.9972025     521.226     -20.469
  -0.9969623   0.0776229  -0.0776229  -0.9969623     550.416     -21.212
  -0.9969755   0.0779989  -0.0779989  -0.9969755     556.803     -20.712
  -0.9971817   0.0782097  -0.0782097  -0.9971817     587.365     -22.708
  -0.9976946   0.0782550  -0.0782550  -0.9976946     603.216     -25.669
  -0.9974387   0.0787295  -0.0787295  -0.9974387     609.682     -26.667
  -0.9972689   0.0790699  -0.0790699  -0.9972687     613.376     -24.973
