  -0.9962273   0.0867762  -0.0867762  -0.9962273    -236.123     -39.160
  -0.9962920   0.0858342  -0.0858342  -0.9962920    -235.412     -36.636
  -0.9964121   0.0851979  -0.0851979  -0.9964121    -224.756     -33.002
  -0.9966379   0.0848019  -0.0848019  -0.9966381    -226.951     -29.867
  -0.9967719   0.0840032  -0.0840032  -0.9967719    -227.664     -29.255
  -0.9972376   0.0826868  -0.0826868  -0.9972376    -213.357     -27.028
  -0.9973437   0.0826494  -0.0826494  -0.9973437    -210.776     -20.325
  -0.9975036   0.0822146  -0.0822146  -0.9975036    -203.391     -17.398
  -0.9975023   0.0821415  -0.0821415  -0.9975023    -198.389     -15.281
  -0.9976383   0.0818778  -0.0818778  -0.9976383    -198.448     -14.128
  -0.9977266   0.0815761  -0.0815761  -0.9977266    -190.542      -5.589
  -0.9975851   0.0813316  -0.0813316  -0.9975851    -178.533      -0.835
  -0.9975839   0.0812377  -0.0812377  -0.9975839    -168.493       3.302
  -0.9980414   0.0811653  -0.0811653  -0.9980414    -166.332       5.294
  -0.9976785   0.0810840  -0.0810840  -0.9976785    -154.972       9.995
  -0.9976764   0.0807386  -0.0807386  -0.9976764    -141.841      13.707
  -0.9975483   0.0803586  -0.0803586  -0.9975483    -135.938      16.132
  -0.9978893   0.0801993  -0.0801993  -0.9978893    -122.987      18.403
  -0.9979534   0.0799370  -0.0799370  -0.9979534    -112.419      19.973
  -0.9978220   0.0796825  -0.0796825  -0.9978220    -102.015      22.385
  -0.9977925   0.0792899  -0.0792899  -0.9977925     -94.238      24.777
  -0.9977595   0.0790417  -0.0790417  -0.9977595     -71.139      22.297
  -0.9981199   0.0784316  -0.0784316  -0.9981199     -54.648      24.694
  -0.9982787   0.0786117  -0.0786117  -0.9982787     -39.140      24.425
  -0.9984233   0.0787211  -0.0787211  -0.9984233     -26.202      25.164
  -0.9981658   0.0785497  -0.0785497  -0.9981658     -13.580      23.411
  -0.9985326   0.0778070  -0.0778070  -0.9985326       0.474      22.891
  -0.9978956   0.0779996  -0.0779996  -0.9978956      17.865      23.570
  -0.9976355   0.0779137  -0.0779137  -0.9976355      29.773      24.326
  -0.9978928   0.0777656  -0.0777656  -0.9978928      44.126      25.137
  -0.9975466   0.0773361  -0.0773361  -0.9975466      60.537      22.302
  -0.9985387   0.0769398  -0.0769398  -0.9985387      76.089      19.877
  -0.9987218   0.0765398  -0.0765398  -0.9987218      92.482      21.847
  -0.9991380   0.0758464  -0.0758464  -0.9991379     102.039      17.372
  -0.9993032   0.0751372  -0.0751372  -0.9993032     116.758      16.772
  -0.9984352   0.0760432  -0.0760432  -0.9984353     127.612      16.938
  -0.9961113   0.0766037  -0.0766037  -0.9961113     135.195      17.302
  -0.9939381   0.0791243  -0.0791243  -0.9939382     142.439      20.369
  -0.9902347   0.0811127  -0.0811127  -0.9902347     140.036      25.766
  -1.0002521   0.0752107  -0.0752107  -1.0002521      89.630      -6.435
  -0.9992543   0.0754687  -0.0754687  -0.9992543      86.797      -8.179
  -0.9992920   0.0754368  -0.0754368  -0.9992920      92.152      -8.362
  -0.9990639   0.0755320  -0.0755320  -0.9990639      98.244      -7.252
  -0.9991808   0.0756089  -0.0756089  -0.9991808      96.671     -11.019
  -0.9991071   0.0755338  -0.0755338  -0.9991071     102.239     -11.274
  -0.9989101   0.0757874  -0.0757874  -0.9989101     106.265     -12.621
  -0.9987520   0.0754545  -0.0754545  -0.9987520     106.143     -13.270
  -0.9985586   0.0748622  -0.0748622  -0.9985586     114.035     -14.021
  -0.9984254   0.0747392  -0.0747392  -0.9984254     116.841     -15.320
  -0.9984040   0.0747412  -0.0747412  -0.9984040     121.628     -14.954
  -0.9985540   0.0743569  -0.0743569  -0.9985540     125.175     -15.612
  -0.9986534   0.0744101  -0.0744101  -0.9986534     127.170     -16.856
  -0.9983351   0.0742944  -0.0742944  -0.9983349     122.711     -17.575
  -0.9985672   0.0739627  -0.0739627  -0.9985672     131.508     -20.089
  -0.9985019   0.0741728  -0.0741728  -0.9985018     124.846     -18.393
  -0.9987258   0.0738952  -0.0738952  -0.9987257     135.661     -19.058
  -0.9986672   0.0736196  -0.0736196  -0.9986672     137.160     -20.159
  -0.9985746   0.0736661  -0.0736661  -0.9985746     133.904     -18.460
  -0.9982330   0.0742715  -0.0742715  -0.9982330     129.662     -16.346
