1	1	-60.08	-60.08	  2317   2
2	2	-58.08	-58.08	  2311
3	3	-56.09	-56.09	  2273
4	4	-54.09	-54.09	  2317
5	5	-52.09	-52.09	  2304
6	6	-50.09	-50.09	  2275
7	7	-48.09	-48.09	  2306
8	8	-46.09	-46.09	  2327
9	9	-44.09	-44.09	  2315
10	10	-42.09	-42.09	  2292
11	11	-40.09	-40.09	  2294
12	12	-38.09	-38.09	  2383
13	13	-36.07	-36.07	  2360
14	14	-34.05	-34.05	  2399
15	15	-32.03	-32.03	  2434
16	16	-30.00	-30.00	  2399
17	17	-27.98	-27.98	  2411
18	18	-26.03	-26.03	  2434
19	19	-24.09	-24.09	  2416
20	20	-22.14	-22.14	  2420
21	21	-20.19	-20.19	  2444
22	22	-18.25	-18.25	  2431
23	23	-16.21	-16.21	  2480
24	24	-14.16	-14.16	  2470
25	25	-12.12	-12.12	  2462
26	26	-10.08	-10.08	  2484
27	27	-8.04	-8.04	  2472
28	28	-6.00	-6.00	  2493
29	29	-3.71	-3.71	  2488
30	30	-1.43	-1.43	  2469
31	31	 0.86	 0.86	  2482
32	32	 3.15	 3.15	  2485
33	33	 5.43	 5.43	  2467
34	34	 7.72	 7.72	  2468
35	35	 9.46	 9.46	  2459
36	36	11.20	11.20	  2438
37	37	12.94	12.94	  2428
38	38	14.68	14.68	  2459
39	39	16.41	16.41	  2539
40	40	18.15	18.15	  2674
41	41	20.09	20.09	  2521
42	42	22.03	22.03	  2542
43	43	23.97	23.97	  2484
44	44	25.90	25.90	  2528
45	45	27.84	27.84	  2543
46	46	29.78	29.78	  2547
47	47	31.76	31.76	  2589
48	48	33.73	33.73	  2496
49	49	35.71	35.71	  2548
50	50	37.69	37.69	  2529
51	51	39.66	39.66	  2511
52	52	41.64	41.64	  2458
53	53	43.61	43.61	  2478
54	54	45.59	45.59	  2411
55	55	47.56	47.56	  2456
56	56	49.54	49.54	  2437
57	57	51.52	51.52	  2450
58	58	53.50	53.50	  2349
