1	0	0.0	0.0	0.0	3
1	1	-59.11	-59.11	 3621.5	 3349.7	 -15.08
2	2	-57.16	-57.16	 3622.4	 3350.5	 -15.08
3	3	-55.22	-55.22	 3565.5	 3293.7	 -15.08
4	4	-53.27	-53.27	 3604.9	 3335.1	 -15.51
5	5	-51.27	-51.27	 3714.4	 3444.2	 -15.05
6	6	-49.27	-49.27	 3738.1	 3466.7	 -14.01
7	7	-47.28	-47.28	 3729.6	 3441.0	 -12.97
8	8	-45.28	-45.28	 3761.0	 3485.7	 -12.82
9	9	-43.26	-43.26	 3784.8	 3507.2	 -11.02
10	10	-41.24	-41.24	 3746.2	 3467.2	 -11.41
11	11	-39.21	-39.21	 3772.2	 3500.9	 -11.48
12	12	-37.19	-37.19	 3768.6	 3504.7	 -11.55
13	13	-35.19	-35.19	 3792.3	 3522.8	 -11.64
14	14	-33.19	-33.19	 3796.8	 3515.8	 -12.12
15	15	-31.19	-31.19	 3801.2	 3528.0	 -13.44
16	16	-29.18	-29.18	 3820.8	 3548.4	 -12.68
17	17	-27.18	-27.18	 3819.7	 3535.2	 -12.28
18	18	-25.19	-25.19	 3834.9	 3559.6	 -12.63
19	19	-23.20	-23.20	 3827.1	 3556.2	 -13.92
20	20	-21.21	-21.21	 3825.5	 3556.4	 -11.48
21	21	-19.21	-19.21	 3851.4	 3582.5	 -13.04
22	22	-17.22	-17.22	 3838.2	 3575.5	 -13.23
23	23	-15.23	-15.23	 3848.2	 3575.5	 -12.60
24	24	-13.36	-13.36	 3837.5	 3563.9	 -11.82
25	25	-11.49	-11.49	 3857.4	 3575.2	 -12.55
26	26	-9.62	-9.62	 3845.5	 3564.9	 -12.32
27	27	-7.74	-7.74	 3851.4	 3575.4	 -11.87
28	28	-5.87	-5.87	 3828.9	 3568.2	 -12.92
29	29	-4.00	-4.00	 3820.1	 3556.1	 -13.17
30	30	-1.60	-1.60	 3823.1	 3561.2	 -13.48
31	31	 0.80	 0.80	 3813.8	 3541.3	 -13.88
32	32	 3.20	 3.20	 3833.2	 3551.6	 -14.79
33	33	 5.60	 5.60	 3840.3	 3556.0	 -14.05
34	34	 8.00	 8.00	 3821.6	 3541.8	 -14.09
35	35	10.40	10.40	 3820.8	 3552.2	 -13.72
36	36	12.22	12.22	 3763.8	 3536.8	 -12.65
37	37	14.05	14.05	 3876.7	 3665.5	 -13.65
38	38	15.88	15.88	 4022.1	 3807.5	 -13.00
39	39	17.71	17.71	 4151.0	 3928.9	 -12.44
40	40	19.54	19.54	 3867.3	 3649.9	 -14.42
41	41	21.37	21.37	 3839.4	 3608.5	 -14.76
42	42	23.32	23.32	 3853.8	 3589.2	 -12.92
43	43	25.27	25.27	 3860.6	 3590.6	 -13.54
44	44	27.22	27.22	 3839.3	 3571.7	 -12.90
45	45	29.17	29.17	 3846.2	 3605.8	 -12.28
46	46	31.12	31.12	 3861.8	 3621.9	 -11.49
47	47	33.06	33.06	 3862.6	 3613.3	 -11.65
48	48	35.07	35.07	 3898.7	 3627.1	 -12.26
49	49	37.07	37.07	 3905.9	 3630.2	 -12.84
50	50	39.07	39.07	 3926.9	 3646.3	 -11.94
51	51	41.07	41.07	 3955.7	 3672.1	 -13.39
52	52	43.07	43.07	 3981.8	 3692.8	 -14.06
53	53	45.06	45.06	 3963.8	 3686.0	 -13.92
54	54	47.06	47.06	 3981.4	 3696.6	 -13.48
55	55	49.06	49.06	 3974.8	 3689.6	 -12.91
56	56	51.05	51.05	 3988.3	 3706.4	 -12.31
57	57	53.05	53.05	 3996.8	 3716.3	 -12.96
58	58	55.05	55.05	 4013.8	 3733.2	 -12.96
59	59	57.05	57.05	 3905.8	 3625.3	 -12.96
