1	0	0.0	0.0	0.0	3
1	1	-60.64	-60.64	 3103.3	 2855.1	 -15.04
2	2	-58.64	-58.64	 2416.3	 2168.2	 -15.04
3	3	-56.64	-56.64	 3150.4	 2902.2	 -15.04
4	4	-54.64	-54.64	 5524.3	 5408.2	  -8.04
5	5	-52.63	-52.63	 4101.4	 3810.7	 -14.87
6	6	-50.63	-50.63	 3205.0	 2939.8	 -15.04
7	7	-48.62	-48.62	 3231.6	 2966.1	 -14.10
8	8	-46.61	-46.61	 3248.8	 2992.9	 -13.37
9	9	-44.61	-44.61	 3261.5	 3011.1	 -13.62
10	10	-42.60	-42.60	 3281.2	 3030.6	 -14.76
11	11	-40.60	-40.60	 3238.0	 2986.0	 -13.55
12	12	-38.59	-38.59	 3287.3	 3035.6	 -14.90
13	13	-36.62	-36.62	 3294.1	 3041.6	 -14.44
14	14	-34.64	-34.64	 3315.6	 3065.3	 -13.09
15	15	-32.67	-32.67	 3355.8	 3101.8	 -13.81
16	16	-30.69	-30.69	 3373.1	 3117.8	 -14.99
17	17	-28.72	-28.72	 3370.4	 3112.2	 -14.01
18	18	-26.70	-26.70	 3378.7	 3120.1	 -13.94
19	19	-24.69	-24.69	 3372.3	 3109.6	 -14.53
20	20	-22.67	-22.67	 3365.3	 3098.8	 -13.87
21	21	-20.66	-20.66	 3356.0	 3089.7	 -13.36
22	22	-18.64	-18.64	 3374.5	 3107.0	 -12.44
23	23	-16.63	-16.63	 3368.5	 3105.6	 -11.96
24	24	-14.52	-14.52	 3383.1	 3108.3	 -12.96
25	25	-12.42	-12.42	 3395.0	 3134.9	 -13.93
26	26	-10.31	-10.31	 3416.4	 3169.6	 -13.82
27	27	-8.21	-8.21	 3411.7	 3165.4	 -13.45
28	28	-6.10	-6.10	 3418.4	 3168.8	 -14.74
29	29	-4.00	-4.00	 3381.8	 3132.8	 -15.37
30	30	-2.51	-2.51	 3433.7	 3191.6	 -15.77
31	31	-1.01	-1.01	 3369.1	 3104.2	 -15.56
32	32	 0.48	 0.48	 3374.1	 3103.8	 -15.23
33	33	 1.98	 1.98	 3352.1	 3091.5	 -14.63
34	34	 3.47	 3.47	 3359.4	 3097.7	 -14.36
35	35	 4.96	 4.96	 3350.6	 3074.2	 -14.18
36	36	 7.34	 7.34	 3395.6	 3148.4	 -14.59
37	37	 9.71	 9.71	 3376.3	 3147.1	 -19.45
38	38	12.09	12.09	 3601.6	 3372.9	 -21.39
39	39	14.46	14.46	 3732.3	 3496.9	 -20.50
40	40	16.84	16.84	 3442.9	 3246.3	 -23.47
41	41	19.22	19.22	 3433.6	 3207.3	 -19.11
42	42	21.27	21.27	 3410.0	 3147.4	 -15.23
43	43	23.32	23.32	 3422.9	 3153.8	 -15.27
44	44	25.37	25.37	 3405.6	 3138.1	 -14.49
45	45	27.42	27.42	 3434.6	 3164.1	 -14.96
46	46	29.47	29.47	 3438.0	 3181.2	 -16.57
47	47	31.53	31.53	 3434.5	 3179.3	 -14.85
48	48	33.51	33.51	 3482.9	 3232.1	 -15.12
49	49	35.49	35.49	 3506.2	 3259.5	 -15.05
50	50	37.47	37.47	 3488.5	 3243.6	 -14.62
51	51	39.45	39.45	 3454.3	 3194.8	 -13.86
52	52	41.43	41.43	 3484.3	 3216.3	 -14.31
53	53	43.42	43.42	 3471.3	 3210.0	 -14.18
54	54	45.41	45.41	 3487.9	 3221.7	 -14.57
55	55	47.39	47.39	 3498.8	 3226.8	 -14.35
56	56	49.38	49.38	 3489.2	 3229.1	 -14.25
57	57	51.42	51.42	 3447.9	 3189.1	 -15.22
58	58	53.46	53.46	 3421.3	 3162.4	 -15.22
59	59	55.50	55.50	 3323.2	 3064.3	 -15.22
