 -59.11
 -57.16
 -55.22
 -53.27
 -51.27
 -49.27
 -47.28
 -45.28
 -43.26
 -41.24
 -39.21
 -37.19
 -35.19
 -33.19
 -31.19
 -29.18
 -27.18
 -25.19
 -23.20
 -21.21
 -19.21
 -17.22
 -15.23
 -13.36
 -11.49
  -9.62
  -7.74
  -5.87
  -4.00
  -1.60
   0.80
   3.20
   5.60
   8.00
  10.40
  12.22
  14.05
  15.88
  17.71
  19.54
  21.37
  23.32
  25.27
  27.22
  29.17
  31.12
  33.06
  35.07
  37.07
  39.07
  41.07
  43.07
  45.06
  47.06
  49.06
  51.05
  53.05
  55.05
  57.05
