  -0.9967962   0.0799749  -0.0799749  -0.9967962     175.009     -11.211
  -0.9971476   0.0787607  -0.0787607  -0.9971477     176.710     -11.337
  -0.9977223   0.0766656  -0.0766656  -0.9977223     184.880     -10.243
  -0.9975390   0.0750345  -0.0750345  -0.9975390     177.545      -9.817
  -0.9976788   0.0739820  -0.0739820  -0.9976788     170.103      -8.918
  -0.9980975   0.0736424  -0.0736424  -0.9980975     168.611      -8.368
  -0.9980376   0.0730103  -0.0730103  -0.9980375     159.220      -6.417
  -0.9976245   0.0730692  -0.0730692  -0.9976245     158.094      -5.839
  -0.9984040   0.0727372  -0.0727372  -0.9984040     154.387      -7.402
  -0.9982226   0.0728360  -0.0728360  -0.9982226     145.943      -3.290
  -0.9979187   0.0728533  -0.0728533  -0.9979187     140.155      -1.420
  -0.9984240   0.0725204  -0.0725204  -0.9984240     139.229      -2.351
  -0.9984521   0.0724241  -0.0724241  -0.9984521     136.616      -1.928
  -0.9985418   0.0722308  -0.0722308  -0.9985418     130.456      -0.354
  -0.9982595   0.0723424  -0.0723424  -0.9982596     126.162       1.228
  -0.9985810   0.0719541  -0.0719541  -0.9985809     125.319      -1.505
  -0.9982603   0.0719695  -0.0719695  -0.9982603     115.607      -0.159
  -0.9984871   0.0721338  -0.0721338  -0.9984871     113.317      -0.036
  -0.9982498   0.0721999  -0.0721999  -0.9982498     104.681       0.601
  -0.9984078   0.0717897  -0.0717897  -0.9984078      96.112       2.822
  -0.9982514   0.0717677  -0.0717677  -0.9982514      80.434       4.812
  -0.9993820   0.0720066  -0.0720066  -0.9993820      82.837       5.573
  -0.9985488   0.0719561  -0.0719561  -0.9985489      74.836       4.565
  -0.9982830   0.0719061  -0.0719061  -0.9982829      65.899       4.568
  -0.9984246   0.0720046  -0.0720046  -0.9984247      57.255       4.341
  -0.9983191   0.0719697  -0.0719697  -0.9983190      45.327       1.936
  -0.9981137   0.0721848  -0.0721848  -0.9981137      36.672       2.786
  -0.9984712   0.0720567  -0.0720567  -0.9984712      22.636       4.897
  -0.9985923   0.0721093  -0.0721093  -0.9985923      15.207       2.635
  -0.9985434   0.0713441  -0.0713441  -0.9985434       7.204       3.380
  -0.9985031   0.0719736  -0.0719736  -0.9985031      -3.480       2.569
  -0.9981888   0.0711484  -0.0711484  -0.9981888     -13.220      -1.539
  -0.9978588   0.0715462  -0.0715462  -0.9978588     -25.212      -2.189
  -0.9965939   0.0716598  -0.0716598  -0.9965939     -37.008       0.789
  -0.9962689   0.0715208  -0.0715208  -0.9962689     -51.656      -1.867
  -0.9963581   0.0718651  -0.0718651  -0.9963581     -71.222      -1.025
  -0.9973043   0.0729189  -0.0729189  -0.9973043     -90.637       4.442
  -0.9983090   0.0739337  -0.0739337  -0.9983090    -117.828       6.953
  -0.9991510   0.0759892  -0.0759892  -0.9991510    -148.215      14.233
  -0.9976402   0.0698682  -0.0698682  -0.9976402     -63.650       2.996
  -0.9988585   0.0696106  -0.0696106  -0.9988585     -78.255       2.857
  -0.9978971   0.0697260  -0.0697260  -0.9978971     -86.534       4.320
  -0.9980708   0.0698551  -0.0698551  -0.9980708     -94.185       3.745
  -0.9987711   0.0693131  -0.0693131  -0.9987711    -104.852       2.663
  -0.9987118   0.0693791  -0.0693791  -0.9987118    -111.966       2.875
  -0.9986860   0.0692928  -0.0692928  -0.9986860    -117.470       2.326
  -0.9987775   0.0696430  -0.0696430  -0.9987775    -126.508       3.288
  -0.9986883   0.0693092  -0.0693092  -0.9986882    -131.738       1.358
  -0.9986681   0.0688841  -0.0688841  -0.9986681    -141.015       1.996
  -0.9988901   0.0688956  -0.0688956  -0.9988901    -145.963       2.278
  -0.9993435   0.0687102  -0.0687102  -0.9993435    -156.781       1.812
  -0.9990792   0.0689979  -0.0689979  -0.9990792    -159.029       2.372
  -0.9989327   0.0688119  -0.0688119  -0.9989327    -166.449       1.203
  -0.9990743   0.0686274  -0.0686274  -0.9990743    -172.911      -0.973
  -0.9989082   0.0684764  -0.0684764  -0.9989082    -182.203       0.685
  -0.9986657   0.0681548  -0.0681548  -0.9986658    -180.815      -0.266
  -0.9988545   0.0677863  -0.0677863  -0.9988546    -185.351       0.995
  -0.9989878   0.0674039  -0.0674039  -0.9989878    -193.362      -0.110
  -0.9990941   0.0670108  -0.0670108  -0.9990941    -205.229       1.729
