 -60.64
 -58.64
 -56.64
 -54.64
 -52.63
 -50.63
 -48.62
 -46.61
 -44.61
 -42.60
 -40.60
 -38.59
 -36.62
 -34.64
 -32.67
 -30.69
 -28.72
 -26.70
 -24.69
 -22.67
 -20.66
 -18.64
 -16.63
 -14.52
 -12.42
 -10.31
  -8.21
  -6.10
  -4.00
  -2.51
  -1.01
   0.48
   1.98
   3.47
   4.96
   7.34
   9.71
  12.09
  14.46
  16.84
  19.22
  21.27
  23.32
  25.37
  27.42
  29.47
  31.53
  33.51
  35.49
  37.47
  39.45
  41.43
  43.42
  45.41
  47.39
  49.38
  51.42
  53.46
  55.50
