  -0.9968097   0.0798216  -0.0798216  -0.9968097     -89.224     -18.911
  -0.9967290   0.0794356  -0.0794356  -0.9967290     -76.599     -14.784
  -0.9968005   0.0789013  -0.0789013  -0.9968005     -78.676     -13.447
  -0.9968383   0.0782466  -0.0782466  -0.9968383     -78.523      -9.745
  -0.9966517   0.0781887  -0.0781887  -0.9966517     -71.778     -10.950
  -0.9969455   0.0780166  -0.0780166  -0.9969455     -74.361      -6.102
  -0.9968095   0.0780653  -0.0780653  -0.9968095     -69.396      -5.347
  -0.9971585   0.0773361  -0.0773361  -0.9971585     -67.096      -5.541
  -0.9972842   0.0774563  -0.0774563  -0.9972842     -71.205      -3.028
  -0.9973522   0.0772762  -0.0772762  -0.9973522     -69.032      -1.396
  -0.9971743   0.0770807  -0.0770807  -0.9971743     -63.789      -1.299
  -0.9971817   0.0767785  -0.0767785  -0.9971817     -57.977      -0.758
  -0.9971148   0.0763902  -0.0763902  -0.9971148     -54.508       2.631
  -0.9974403   0.0767515  -0.0767515  -0.9974403     -52.148       3.431
  -0.9968698   0.0766545  -0.0766545  -0.9968698     -38.472       2.536
  -0.9968332   0.0764363  -0.0764363  -0.9968332     -39.831       6.392
  -0.9963651   0.0760816  -0.0760816  -0.9963651     -32.559       6.322
  -0.9971623   0.0767275  -0.0767275  -0.9971623     -31.504       6.457
  -0.9972000   0.0763157  -0.0763157  -0.9971999     -22.507       6.085
  -0.9976112   0.0760682  -0.0760682  -0.9976111     -22.890       9.149
  -0.9975332   0.0757393  -0.0757393  -0.9975332     -14.927       9.933
  -0.9977416   0.0754295  -0.0754295  -0.9977416      -9.888      10.658
  -0.9971835   0.0755318  -0.0755318  -0.9971835      -3.356      11.475
  -0.9967844   0.0754736  -0.0754736  -0.9967843       5.024      11.600
  -0.9965319   0.0754618  -0.0754618  -0.9965320       5.659       8.375
  -0.9960770   0.0751792  -0.0751792  -0.9960770       7.993       7.629
  -0.9961595   0.0751874  -0.0751874  -0.9961595       6.873       9.786
  -0.9969506   0.0750869  -0.0750869  -0.9969506      12.770       8.171
  -0.9971215   0.0751051  -0.0751051  -0.9971216      16.350       9.071
  -0.9971415   0.0751824  -0.0751824  -0.9971415      19.886       7.229
  -0.9973496   0.0749826  -0.0749826  -0.9973496      19.630       6.874
  -0.9974987   0.0749718  -0.0749718  -0.9974986      22.547       4.544
  -0.9973609   0.0749641  -0.0749641  -0.9973609      24.431       3.870
  -0.9960846   0.0744170  -0.0744170  -0.9960845      23.493      -0.729
  -0.9969108   0.0749386  -0.0749386  -0.9969108      23.159       1.782
  -0.9947987   0.0752846  -0.0752846  -0.9947987      18.747      -0.298
  -0.9948838   0.0751839  -0.0751839  -0.9948838      13.536       5.245
  -0.9922444   0.0755169  -0.0755169  -0.9922444       1.546      11.435
  -0.9983145   0.0736215  -0.0736215  -0.9983144      -0.345      -0.066
  -0.9979844   0.0736187  -0.0736187  -0.9979844      -5.673       1.022
  -0.9977594   0.0741281  -0.0741281  -0.9977594     -10.268      -8.140
  -0.9974466   0.0731279  -0.0731279  -0.9974465      -1.898      -1.821
  -0.9972841   0.0731174  -0.0731174  -0.9972841      -5.934      -0.460
  -0.9970600   0.0732348  -0.0732348  -0.9970600      -5.000      -0.475
  -0.9970859   0.0728404  -0.0728404  -0.9970858      -1.777      -3.262
  -0.9976938   0.0728358  -0.0728358  -0.9976938      -2.535      -2.769
  -0.9975859   0.0726928  -0.0726928  -0.9975859       0.527      -3.522
  -0.9976058   0.0725963  -0.0725963  -0.9976058       2.783      -3.557
  -0.9976711   0.0726711  -0.0726711  -0.9976711       0.966      -1.989
  -0.9980703   0.0721222  -0.0721222  -0.9980703       6.441      -5.302
  -0.9983262   0.0719931  -0.0719931  -0.9983261       8.069      -5.423
  -0.9976345   0.0728358  -0.0728358  -0.9976345       9.465      -5.379
  -0.9979029   0.0724595  -0.0724595  -0.9979029      10.725      -5.313
  -0.9977425   0.0729754  -0.0729754  -0.9977425       9.432      -4.851
  -0.9983157   0.0725328  -0.0725328  -0.9983157      17.178      -7.657
  -0.9978692   0.0723722  -0.0723722  -0.9978692      19.502      -9.683
  -0.9976758   0.0716327  -0.0716327  -0.9976758      17.266      -7.830
  -0.9974918   0.0719441  -0.0719441  -0.9974918      19.433      -4.743
