 -59.36
 -57.37
 -55.37
 -53.38
 -51.37
 -49.36
 -47.35
 -45.33
 -43.32
 -41.31
 -39.29
 -37.28
 -35.30
 -33.33
 -31.35
 -29.37
 -27.40
 -25.29
 -23.19
 -21.08
 -18.98
 -16.87
 -15.06
 -13.25
 -11.44
  -9.62
  -7.81
  -6.00
  -3.91
  -1.82
   0.27
   2.37
   4.46
   6.55
   8.56
  10.58
  12.59
  14.61
  16.62
  18.64
  20.64
  22.64
  24.64
  26.64
  28.65
  30.65
  32.64
  34.64
  36.63
  38.63
  40.63
  42.64
  44.64
  46.65
  48.65
  50.65
  52.66
  54.66
