 -60.08
 -58.08
 -56.09
 -54.09
 -52.09
 -50.09
 -48.09
 -46.09
 -44.09
 -42.09
 -40.09
 -38.09
 -36.07
 -34.05
 -32.03
 -30.00
 -27.98
 -26.03
 -24.09
 -22.14
 -20.19
 -18.25
 -16.21
 -14.16
 -12.12
 -10.08
  -8.04
  -6.00
  -3.71
  -1.43
   0.86
   3.15
   5.43
   7.72
   9.46
  11.20
  12.94
  14.68
  16.41
  18.15
  20.09
  22.03
  23.97
  25.90
  27.84
  29.78
  31.76
  33.73
  35.71
  37.69
  39.66
  41.64
  43.61
  45.59
  47.56
  49.54
  51.52
  53.50
